# dimensionless total [l(l+1)/2pi] C_l's
# for l=2 to 2500, i.e. number of multipoles equal to 2499
#
# -> if you prefer output in CAMB/HealPix/LensPix units/order, set 'format' to 'camb' in input file
# -> if you don't want to see such a header, set 'headers' to 'no' in input file
# -> for CMB lensing (phi), these are C_l^phi-phi for the lensing potential.
#    Remember the conversion factors:
#    C_l^dd (deflection) = l(l+1) C_l^phi-phi
#    C_l^gg (shear/convergence) = 1/4 (l(l+1))^2 C_l^phi-phi
#
# 1:l     2:TT                     3:EE                     4:TE                     5:BB                     6:phiphi                 7:TPhi                   8:Ephi               
    2       2.053783084101e-10       3.378285837077e-15       2.427817640970e-13       0.000000000000e+00       6.022077187663e-09       6.887612659777e-10      -1.578587604966e-12 
    3       1.803075819349e-10       4.950686377354e-15       3.207935007500e-13       0.000000000000e+00       3.662176024500e-09       4.664525314224e-10      -1.292259371778e-12 
    4       1.616491059683e-10       4.858812325593e-15       3.288146914453e-13       0.000000000000e+00       2.519705203043e-09       3.423377162277e-10      -9.182245370999e-13 
    5       1.484845014632e-10       3.696248274759e-15       3.004489688480e-13       0.000000000000e+00       1.862446062155e-09       2.640885046968e-10      -5.706285024617e-13 
    6       1.392861057815e-10       2.336678361029e-15       2.584388778579e-13       0.000000000000e+00       1.441169377814e-09       2.107422099028e-10      -2.862806087809e-13 
    7       1.329167115545e-10       1.353717589924e-15       2.162796440895e-13       0.000000000000e+00       1.152064474068e-09       1.723907161366e-10      -7.808378306363e-14 
    8       1.285688130400e-10       8.687704204318e-16       1.805250286361e-13       0.000000000000e+00       9.437146167746e-10       1.437578841709e-10       5.482707844979e-14 
    9       1.257234932679e-10       7.133675062830e-16       1.537747081866e-13       0.000000000000e+00       7.878902267247e-10       1.217933329418e-10       1.221771062122e-13 
   10       1.239901757548e-10       6.662828949703e-16       1.363001647171e-13       0.000000000000e+00       6.679287223780e-10       1.045821245717e-10       1.388590514527e-13 
   11       1.231214805103e-10       6.004960948036e-16       1.269284936190e-13       0.000000000000e+00       5.705898087991e-10       9.156970412514e-11       1.214713032180e-13 
   12       1.229274200704e-10       5.012718411607e-16       1.237694781398e-13       0.000000000000e+00       4.954025206854e-10       8.024744030946e-11       8.637417568733e-14 
   13       1.231847139761e-10       4.087228137831e-16       1.248853634429e-13       0.000000000000e+00       4.339334908522e-10       7.095024357263e-11       4.643583063854e-14 
   14       1.239076677381e-10       3.573268052452e-16       1.286156258225e-13       0.000000000000e+00       3.830052446744e-10       6.313298279515e-11       1.092043671915e-14 
   15       1.249669619311e-10       3.516828869594e-16       1.336010287933e-13       0.000000000000e+00       3.403195383734e-10       5.650240769864e-11      -1.473954301477e-14 
   16       1.262577722323e-10       3.761243028121e-16       1.390025765549e-13       0.000000000000e+00       3.041796277299e-10       5.090203561588e-11      -2.864749460355e-14 
   17       1.278383783130e-10       4.149628756899e-16       1.444073396305e-13       0.000000000000e+00       2.733074715750e-10       4.605494373797e-11      -3.198281230717e-14 
   18       1.296066722645e-10       4.637174195120e-16       1.497071430817e-13       0.000000000000e+00       2.466274785374e-10       4.185116336587e-11      -2.756332742915e-14 
   19       1.315444245160e-10       5.269823125157e-16       1.549734029212e-13       0.000000000000e+00       2.236754946374e-10       3.820885571712e-11      -1.858134798463e-14 
   20       1.336171987902e-10       6.110459771103e-16       1.603145371796e-13       0.000000000000e+00       2.035463309818e-10       3.494716520285e-11      -8.994491090684e-15 
   21       1.358405854527e-10       7.167284721795e-16       1.659252610730e-13       0.000000000000e+00       1.859017165867e-10       3.206058278209e-11      -1.044440264382e-15 
   22       1.382058898833e-10       8.422573746900e-16       1.719769518060e-13       0.000000000000e+00       1.702963561812e-10       2.954801972381e-11       3.636720078657e-15 
   23       1.406871246165e-10       9.857196102468e-16       1.783669675873e-13       0.000000000000e+00       1.565061099021e-10       2.734655966011e-11       4.759492192635e-15 
   24       1.432326078154e-10       1.145203767484e-15       1.848543106938e-13       0.000000000000e+00       1.442009343739e-10       2.534910192427e-11       2.774391651922e-15 
   25       1.458544255547e-10       1.322041184578e-15       1.912409945585e-13       0.000000000000e+00       1.332026366980e-10       2.354206319818e-11      -1.143671849257e-15 
   26       1.485686264527e-10       1.518395060825e-15       1.973038381404e-13       0.000000000000e+00       1.232848725448e-10       2.192341420609e-11      -5.461015955639e-15 
   27       1.513829652156e-10       1.734698107932e-15       2.028234154766e-13       0.000000000000e+00       1.143889787207e-10       2.048148368921e-11      -9.337951434976e-15 
   28       1.542823016765e-10       1.970591119608e-15       2.075374126548e-13       0.000000000000e+00       1.063998042287e-10       1.918054160028e-11      -1.202584236287e-14 
   29       1.572354789657e-10       2.225756510182e-15       2.111695013126e-13       0.000000000000e+00       9.911429300325e-11       1.797094179127e-11      -1.283795189834e-14 
   30       1.602460391019e-10       2.501506660280e-15       2.136084707227e-13       0.000000000000e+00       9.248734188105e-11       1.685067665199e-11      -1.196726396600e-14 
   31       1.633176511740e-10       2.799841870417e-15       2.147992611691e-13       0.000000000000e+00       8.646543506369e-11       1.582549688281e-11      -1.001156508498e-14 
   32       1.664439433878e-10       3.122762109841e-15       2.147136287871e-13       0.000000000000e+00       8.094805303177e-11       1.489332594079e-11      -7.680095688420e-15 
   33       1.696248465030e-10       3.471189724129e-15       2.134033547533e-13       0.000000000000e+00       7.590177549386e-11       1.404838133602e-11      -5.431219161423e-15 
   34       1.728537404989e-10       3.845646974431e-15       2.109704586387e-13       0.000000000000e+00       7.127851901781e-11       1.327693334022e-11      -3.717273288749e-15 
   35       1.761182047415e-10       4.246616095604e-15       2.075156134526e-13       0.000000000000e+00       6.700548823967e-11       1.256091911136e-11      -2.954542231277e-15 
   36       1.794219871200e-10       4.674852929336e-15       2.029982996922e-13       0.000000000000e+00       6.306944893206e-11       1.189736241218e-11      -3.071665142074e-15 
   37       1.827690308150e-10       5.131173110217e-15       1.973285883524e-13       0.000000000000e+00       5.945619716079e-11       1.128469841463e-11      -3.802065303348e-15 
   38       1.861567050677e-10       5.616366199113e-15       1.904027357410e-13       0.000000000000e+00       5.612515475082e-11       1.071712661747e-11      -4.795895913975e-15 
   39       1.895788276629e-10       6.131199579396e-15       1.821139752180e-13       0.000000000000e+00       5.302351276459e-11       1.018680572629e-11      -5.689094668354e-15 
   40       1.930377830288e-10       6.676437067859e-15       1.723920762145e-13       0.000000000000e+00       5.014033898397e-11       9.692297874249e-12      -6.353489891862e-15 
   41       1.965352898283e-10       7.252822985272e-15       1.611753766538e-13       0.000000000000e+00       4.746687627090e-11       9.232343512835e-12      -6.721917038400e-15 
   42       2.000685388348e-10       7.861074914858e-15       1.483998003079e-13       0.000000000000e+00       4.498043669613e-11       8.803326072975e-12      -6.720232649550e-15 
   43       2.036325219031e-10       8.501818825777e-15       1.340123528918e-13       0.000000000000e+00       4.265246788283e-11       8.400615139838e-12      -6.301812352691e-15 
   44       2.072289788786e-10       9.175374428941e-15       1.180171670926e-13       0.000000000000e+00       4.047850956660e-11       8.023566586758e-12      -5.564555741780e-15 
   45       2.108594632240e-10       9.881899935181e-15       1.004434388561e-13       0.000000000000e+00       3.845561948924e-11       7.671746985074e-12      -4.669896800409e-15 
   46       2.145225187891e-10       1.062144377591e-14       8.133358346633e-14       0.000000000000e+00       3.657339776031e-11       7.343429761303e-12      -3.813068600455e-15 
   47       2.182133958173e-10       1.139393885949e-14       6.074388032181e-14       0.000000000000e+00       3.481341027225e-11       7.035494492364e-12      -3.225025053303e-15 
   48       2.219262724298e-10       1.219934150751e-14       3.872252324086e-14       0.000000000000e+00       3.315469700232e-11       6.744367472102e-12      -3.108272172669e-15 
   49       2.256623222293e-10       1.303810797774e-14       1.523495033754e-14       0.000000000000e+00       3.159347838374e-11       6.469391910830e-12      -3.418488197841e-15 
   50       2.294234329214e-10       1.391084239890e-14      -9.781426650586e-15       0.000000000000e+00       3.012801328174e-11       6.210234731667e-12      -4.024646641525e-15 
   51       2.332097470702e-10       1.481816541630e-14      -3.639696112917e-14       0.000000000000e+00       2.875273952647e-11       5.965881836860e-12      -4.768317623255e-15 
   52       2.370195059349e-10       1.576071582979e-14      -6.469027965032e-14       0.000000000000e+00       2.745800778150e-11       5.734590529103e-12      -5.462217656916e-15 
   53       2.408503397499e-10       1.673902982914e-14      -9.473240947656e-14       0.000000000000e+00       2.623300653746e-11       5.514439849040e-12      -5.935443420822e-15 
   54       2.447038875549e-10       1.775313847255e-14      -1.265332002278e-13       0.000000000000e+00       2.507603271444e-11       5.305257248169e-12      -6.186166770617e-15 
   55       2.485820931502e-10       1.880286955739e-14      -1.600820103205e-13       0.000000000000e+00       2.398639824247e-11       5.107104423260e-12      -6.265676645094e-15 
   56       2.524857692703e-10       1.988795754725e-14      -1.953627066807e-13       0.000000000000e+00       2.296134075438e-11       4.919700763599e-12      -6.235627720323e-15 
   57       2.564145020677e-10       2.100804007771e-14      -2.323534859362e-13       0.000000000000e+00       2.199589125413e-11       4.742400842159e-12      -6.168547596863e-15 
   58       2.603665555969e-10       2.216265446217e-14      -2.710266956088e-13       0.000000000000e+00       2.108274178511e-11       4.574171906775e-12      -6.148343986978e-15 
   59       2.643398341414e-10       2.335135032832e-14      -3.113577247454e-13       0.000000000000e+00       2.021420025078e-11       4.413888639476e-12      -6.249441845073e-15 
   60       2.683352470983e-10       2.457406600925e-14      -3.533544929337e-13       0.000000000000e+00       1.938888554739e-11       4.261348490931e-12      -6.467385114939e-15 
   61       2.723539580983e-10       2.583083354141e-14      -3.970345056676e-13       0.000000000000e+00       1.860635612619e-11       4.116452774791e-12      -6.772986381526e-15 
   62       2.763963374300e-10       2.712167065272e-14      -4.424165130447e-13       0.000000000000e+00       1.786509922467e-11       3.978898617531e-12      -7.132067109259e-15 
   63       2.804619023840e-10       2.844658120502e-14      -4.895206383975e-13       0.000000000000e+00       1.716246928578e-11       3.848167204474e-12      -7.505240420547e-15 
   64       2.845492575953e-10       2.980555563652e-14      -5.383685069239e-13       0.000000000000e+00       1.649462637718e-11       3.723512025824e-12      -7.847693874299e-15 
   65       2.886568768954e-10       3.119845470691e-14      -5.889737619717e-13       0.000000000000e+00       1.585756078123e-11       3.604163286053e-12      -8.119183281778e-15 
   66       2.927857753229e-10       3.262463112259e-14      -6.413109905106e-13       0.000000000000e+00       1.525055729164e-11       3.490017849480e-12      -8.316962083284e-15 
   67       2.969372980283e-10       3.408322833230e-14      -6.953404271076e-13       0.000000000000e+00       1.467335668144e-11       3.381074833657e-12      -8.449458145857e-15 
   68       3.011122932550e-10       3.557328738447e-14      -7.510168479427e-13       0.000000000000e+00       1.412510365603e-11       3.277226738600e-12      -8.526745218218e-15 
   69       3.053110762211e-10       3.709374410533e-14      -8.082894305634e-13       0.000000000000e+00       1.360431565479e-11       3.178253739341e-12      -8.560611332704e-15 
   70       3.095333930010e-10       3.864342627709e-14      -8.671016136389e-13       0.000000000000e+00       1.310885165278e-11       3.083817978486e-12      -8.564627207201e-15 
   71       3.137783844076e-10       4.022105081613e-14      -9.273909567137e-13       0.000000000000e+00       1.263588096234e-11       2.993457858768e-12      -8.554214647075e-15 
   72       3.180450794659e-10       4.182534702275e-14      -9.890994882944e-13       0.000000000000e+00       1.218259106649e-11       2.906705883039e-12      -8.543261287349e-15 
   73       3.223340657604e-10       4.345545999019e-14      -1.052207361341e-12       0.000000000000e+00       1.174853774516e-11       2.823481044101e-12      -8.533060535399e-15 
   74       3.266460759320e-10       4.511061989098e-14      -1.116705434576e-12       0.000000000000e+00       1.133369177557e-11       2.743761790516e-12      -8.521362379466e-15 
   75       3.309814628765e-10       4.679002282192e-14      -1.182585454080e-12       0.000000000000e+00       1.093772578866e-11       2.667466315154e-12      -8.505628672210e-15 
   76       3.353401757171e-10       4.849283086058e-14      -1.249840152505e-12       0.000000000000e+00       1.055999994358e-11       2.594449668476e-12      -8.483022681969e-15 
   77       3.397217357772e-10       5.021817212182e-14      -1.318463348285e-12       0.000000000000e+00       1.019954760223e-11       2.524500871795e-12      -8.450398644013e-15 
   78       3.441252125534e-10       5.196514081432e-14      -1.388450044855e-12       0.000000000000e+00       9.855061003760e-12       2.457340030560e-12      -8.404291311793e-15 
   79       3.485491996887e-10       5.373279729708e-14      -1.459796529860e-12       0.000000000000e+00       9.524876939071e-12       2.392615447625e-12      -8.340905508198e-15 
   80       3.529923657790e-10       5.552012665111e-14      -1.532492555235e-12       0.000000000000e+00       9.207378361345e-12       2.329990563071e-12      -8.257214088995e-15 
   81       3.574552698156e-10       5.732590598462e-14      -1.606496095174e-12       0.000000000000e+00       8.902311055717e-12       2.269428512443e-12      -8.154494413079e-15 
   82       3.619388186377e-10       5.914881407852e-14      -1.681754365065e-12       0.000000000000e+00       8.609670549546e-12       2.210951948218e-12      -8.035389838200e-15 
   83       3.664437069261e-10       6.098747012369e-14      -1.758211304574e-12       0.000000000000e+00       8.329299965124e-12       2.154556398139e-12      -7.902865780483e-15 
   84       3.709704038208e-10       6.284043300927e-14      -1.835807530199e-12       0.000000000000e+00       8.060883396707e-12       2.100209041943e-12      -7.760219791837e-15 
   85       3.755191395390e-10       6.470620061091e-14      -1.914480287840e-12       0.000000000000e+00       7.803939287543e-12       2.047847488088e-12      -7.611091637355e-15 
   86       3.800898919933e-10       6.658320907906e-14      -1.994163405358e-12       0.000000000000e+00       7.557813806909e-12       1.997378550483e-12      -7.459473372727e-15 
   87       3.846823734099e-10       6.846983212726e-14      -2.074787245141e-12       0.000000000000e+00       7.321674227133e-12       1.948677025216e-12      -7.309719421638e-15 
   88       3.892960169457e-10       7.036438032041e-14      -2.156278656665e-12       0.000000000000e+00       7.094502300632e-12       1.901584467281e-12      -7.166556653177e-15 
   89       3.939302597897e-10       7.226516268908e-14      -2.238566147262e-12       0.000000000000e+00       6.875330318135e-12       1.855949324423e-12      -7.034146927458e-15 
   90       3.985854725268e-10       7.417068420064e-14      -2.321596427411e-12       0.000000000000e+00       6.664006157376e-12       1.811757220217e-12      -6.913084234892e-15 
   91       4.032621515837e-10       7.607947809773e-14      -2.405320385539e-12       0.000000000000e+00       6.460536601737e-12       1.769018949474e-12      -6.802942881195e-15 
   92       4.079606269095e-10       7.799004654873e-14      -2.489688131172e-12       0.000000000000e+00       6.264852396990e-12       1.727730345203e-12      -6.703179025401e-15 
   93       4.126810530345e-10       7.990086086976e-14      -2.574649025677e-12       0.000000000000e+00       6.076805264002e-12       1.687871674920e-12      -6.613126562043e-15 
   94       4.174234001311e-10       8.181036174665e-14      -2.660151712994e-12       0.000000000000e+00       5.896164911440e-12       1.649407036960e-12      -6.531993003319e-15 
   95       4.221874450722e-10       8.371695945701e-14      -2.746144150381e-12       0.000000000000e+00       5.722616048473e-12       1.612283756786e-12      -6.458855361269e-15 
   96       4.269727624918e-10       8.561903409214e-14      -2.832573639148e-12       0.000000000000e+00       5.555755397479e-12       1.576431783298e-12      -6.392656029943e-15 
   97       4.317787158443e-10       8.751493577911e-14      -2.919386855398e-12       0.000000000000e+00       5.395088706743e-12       1.541763085146e-12      -6.332198667579e-15 
   98       4.366044484642e-10       8.940298490271e-14      -3.006529880762e-12       0.000000000000e+00       5.240027763169e-12       1.508171047043e-12      -6.276144078772e-15 
   99       4.414491349529e-10       9.128149521896e-14      -3.093946819426e-12       0.000000000000e+00       5.090021648357e-12       1.475555211242e-12      -6.223232672276e-15 
  100       4.463127952935e-10       9.314884645103e-14      -3.181575359240e-12       0.000000000000e+00       4.944978177347e-12       1.443900805573e-12      -6.172996688352e-15 
  101       4.511955799762e-10       9.500342243614e-14      -3.269350636054e-12       0.000000000000e+00       4.804896881245e-12       1.413209410801e-12      -6.125141671911e-15 
  102       4.560975142471e-10       9.684358964462e-14      -3.357206604773e-12       0.000000000000e+00       4.669738746359e-12       1.383474327661e-12      -6.079327542682e-15 
  103       4.610184923231e-10       9.866769767936e-14      -3.445076052962e-12       0.000000000000e+00       4.539424854088e-12       1.354680280384e-12      -6.035167223760e-15 
  104       4.659582716071e-10       1.004740797753e-13      -3.532890614444e-12       0.000000000000e+00       4.413835020828e-12       1.326803120223e-12      -5.992225270145e-15 
  105       4.709164669031e-10       1.022610532988e-13      -3.620580782909e-12       0.000000000000e+00       4.292806437859e-12       1.299809528975e-12      -5.950016497288e-15 
  106       4.758925446314e-10       1.040269202475e-13      -3.708075925508e-12       0.000000000000e+00       4.176132311249e-12       1.273656722507e-12      -5.908004609634e-15 
  107       4.808858170439e-10       1.057699677491e-13      -3.795304296463e-12       0.000000000000e+00       4.063560501745e-12       1.248292154282e-12      -5.865600829168e-15 
